# Simple Text Format
# Sampling Rate (Hz):= 1000.00
# Resolution:= 0
# Units:= ms
# Labels:= RRI
601.5625
593.75
585.9375
601.5625
601.5625
601.5625
601.5625
609.375
632.8125
632.8125
632.8125
648.4375
664.0625
625.0
609.375
593.75
625.0
609.375
601.5625
640.625
648.4375
625.0
617.1875
625.0
640.625
625.0
609.375
617.1875
625.0
601.5625
601.5625
609.375
609.375
601.5625
593.75
578.125
617.1875
625.0
648.4375
609.375
593.75
593.75
578.125
585.9375
562.5
570.3125
578.125
585.9375
593.75
585.9375
585.9375
585.9375
593.75
578.125
578.125
601.5625
656.25
640.625
593.75
570.3125
562.5
554.6875
546.875
539.0625
531.25
539.0625
554.6875
570.3125
562.5
554.6875
554.6875
546.875
570.3125
554.6875
554.6875
546.875
554.6875
554.6875
562.5
546.875
546.875
539.0625
546.875
554.6875
546.875
531.25
531.25
531.25
531.25
562.5
570.3125
578.125
585.9375
554.6875
546.875
562.5
570.3125
570.3125
554.6875
546.875
562.5
562.5
578.125
570.3125
546.875
546.875
554.6875
585.9375
617.1875
609.375
585.9375
578.125
578.125
593.75
609.375
585.9375
578.125
593.75
578.125
585.9375
585.9375
593.75
570.3125
578.125
570.3125
570.3125
546.875
570.3125
562.5
554.6875
546.875
562.5
570.3125
570.3125
554.6875
562.5
562.5
578.125
562.5
546.875
546.875
554.6875
554.6875
578.125
562.5
554.6875
562.5
593.75
585.9375
570.3125
562.5
570.3125
570.3125
578.125
562.5
554.6875
554.6875
554.6875
562.5
554.6875
546.875
546.875
546.875
562.5
531.25
546.875
539.0625
539.0625
539.0625
539.0625
531.25
515.625
531.25
546.875
539.0625
539.0625
531.25
539.0625
554.6875
531.25
546.875
546.875
562.5
546.875
539.0625
554.6875
539.0625
531.25
531.25
531.25
531.25
531.25
531.25
523.4375
523.4375
531.25
523.4375
515.625
531.25
539.0625
531.25
531.25
531.25
539.0625
523.4375
523.4375
531.25
539.0625
539.0625
539.0625
531.25
554.6875
539.0625
539.0625
531.25
546.875
531.25
531.25
515.625
515.625
515.625
523.4375
539.0625
546.875
531.25
515.625
531.25
531.25
539.0625
531.25
539.0625
531.25
546.875
554.6875
531.25
539.0625
539.0625
539.0625
546.875
539.0625
539.0625
546.875
531.25
531.25
546.875
539.0625
523.4375
531.25
523.4375
539.0625
546.875
546.875
539.0625
546.875
546.875
585.9375
585.9375
546.875
546.875
546.875
554.6875
546.875
539.0625
531.25
539.0625
554.6875
539.0625
539.0625
546.875
554.6875
539.0625
546.875
531.25
531.25
539.0625
539.0625
531.25
531.25
523.4375
531.25
531.25
539.0625
562.5
578.125
609.375
609.375
562.5
546.875
546.875
546.875
546.875
531.25
531.25
539.0625
546.875
578.125
554.6875
554.6875
554.6875
578.125
562.5
554.6875
546.875
554.6875
546.875
539.0625
523.4375
531.25
539.0625
531.25
531.25
531.25
546.875
554.6875
546.875
546.875
570.3125
554.6875
546.875
554.6875
546.875
554.6875
562.5
585.9375
625.0
632.8125
585.9375
601.5625
609.375
625.0
609.375
585.9375
593.75
601.5625
617.1875
601.5625
585.9375
632.8125
656.25
648.4375
625.0
601.5625
562.5
554.6875
523.4375
523.4375
539.0625
546.875
546.875
546.875
554.6875
562.5
562.5
585.9375
585.9375
562.5
570.3125
578.125
593.75
562.5
562.5
562.5
554.6875
585.9375
625.0
656.25
664.0625
664.0625
648.4375
648.4375
617.1875
601.5625
609.375
625.0
632.8125
625.0
664.0625
718.75
781.25
750.0
703.125
734.375
750.0
726.5625
671.875
703.125
734.375
796.875
718.75
796.875
921.875
906.25
773.4375
820.3125
835.9375
773.4375
765.625
968.75
867.1875
906.25
875.0
718.75
757.8125
781.25
804.6875
773.4375
718.75
828.125
914.0625
773.4375
718.75
773.4375
820.3125
796.875
742.1875
820.3125
898.4375
781.25
804.6875
929.6875
921.875
789.0625
953.125
968.75
875.0
898.4375
929.6875
921.875
851.5625
890.625
875.0
828.125
867.1875
890.625
835.9375
890.625
906.25
796.875
859.375
859.375
828.125
765.625
742.1875
757.8125
867.1875
750.0
890.625
875.0
914.0625
929.6875
921.875
898.4375
812.5
867.1875
851.5625
867.1875
828.125
890.625
906.25
820.3125
890.625
914.0625
851.5625
882.8125
875.0
804.6875
859.375
859.375
851.5625
757.8125
812.5
828.125
828.125
812.5
828.125
882.8125
921.875
882.8125
890.625
906.25